BJD - 2454833, Corrected Flux
2146.452719869, 0.994510057,
2146.473152182, 0.994554134,
2146.514016505, 0.994523431,
2146.534448816, 0.994779561,
2146.554880927, 0.994808662,
2146.575313137, 0.994947839,
2146.595745446, 0.995181518,
2146.616177555, 0.995463114,
2146.636609763, 0.995710786,
2146.657041971, 0.995965695,
2146.677474178, 0.996146130,
2146.697906485, 0.996396199,
2146.718338591, 0.996689940,
2146.738770797, 0.996944806,
2146.759203102, 0.997295032,
2146.779635307, 0.997636846,
2146.800067411, 0.997866853,
2146.820499715, 0.998145057,
2146.840931918, 0.998382259,
2146.861364020, 0.998655894,
2146.881796322, 0.998914279,
2146.902228524, 0.999186164,
2146.922660625, 0.999482983,
2146.943092925, 0.999803224,
2146.963525125, 1.000138356,
2146.983957225, 1.000476712,
2147.004389524, 1.000722609,
2147.024821722, 1.000924519,
2147.045253820, 1.001112672,
2147.065686117, 1.001290011,
2147.086118314, 1.001436598,
2147.106550510, 1.001703552,
2147.126982706, 1.001808788,
2147.147414902, 1.002048238,
2147.167847196, 1.002212904,
2147.188279290, 1.002450533,
2147.208711484, 1.002612032,
2147.229143777, 1.002765422,
2147.270008062, 1.002991898,
2147.290440354, 1.003125482,
2147.310872545, 1.003338929,
2147.331304636, 1.003228418,
2147.351736926, 1.003341938,
2147.372169015, 1.003308403,
2147.392601204, 1.003297946,
2147.413033493, 1.003295452,
2147.433465581, 1.003236435,
2147.494762141, 1.003655732,
2147.515194327, 1.003665528,
2147.535626613, 1.003781279,
2147.556058698, 1.003756560,
2147.576490882, 1.003919199,
2147.596923166, 1.004020048,
2147.617355349, 1.004101284,
2147.637787432, 1.004238197,
2147.658219714, 1.004184986,
2147.678651896, 1.004196346,
2147.699084077, 1.004081755,
2147.719516258, 1.004167279,
2147.739948438, 1.004178514,
2147.760380718, 1.004349477,
2147.801244976, 1.004264944,
2147.821677254, 1.004433242,
2147.842109331, 1.004365083,
2147.862541509, 1.004495485,
2147.882973785, 1.004460075,
2147.903405861, 1.004474074,
2147.923838037, 1.004554839,
2147.944270312, 1.004455815,
2147.985134561, 1.004382546,
2148.005566834, 1.004183551,
2148.025998907, 1.004185190,
2148.046431079, 1.004098744,
2148.066863352, 1.004093031,
2148.087295523, 1.004184119,
2148.107727594, 1.004320394,
2148.128159864, 1.004222419,
2148.148591934, 1.004379549,
2148.169024104, 1.004389583,
2148.189456373, 1.004510254,
2148.209888441, 1.004551301,
2148.230320609, 1.004499543,
2148.250752876, 1.004780671,
2148.271184943, 1.004613046,
2148.291617209, 1.004644981,
2148.312049375, 1.004681233,
2148.332481441, 1.004850510,
2148.352913705, 1.004975152,
2148.373345869, 1.004963008,
2148.393777933, 1.004994395,
2148.414210197, 1.004935299,
2148.434642359, 1.004878383,
2148.475506683, 1.004892373,
2148.495938844, 1.004892774,
2148.516371005, 1.005024264,
2148.536803165, 1.005154775,
2148.557235325, 1.005158853,
2148.577667484, 1.005139274,
2148.598099743, 1.004887107,
2148.618531801, 1.004717996,
2148.638963959, 1.004802595,
2148.659396216, 1.004786820,
2148.679828272, 1.004900530,
2148.700260428, 1.005056731,
2148.720692684, 1.005032227,
2148.741124739, 1.005141191,
2148.761556894, 1.005132164,
2148.781989148, 1.005139000,
2148.802421201, 1.005121839,
2148.822853354, 1.005224062,
2148.843285607, 1.005307034,
2148.863717659, 1.005227159,
2148.884149910, 1.005381919,
2148.904581962, 1.005307054,
2148.925014112, 1.005320160,
2148.945446362, 1.005416379,
2148.965878411, 1.005316974,
2148.986310560, 1.005294827,
2149.006742809, 1.005481823,
2149.027174957, 1.005255683,
2149.047607005, 1.005296045,
2149.068039251, 1.005695697,
2149.088471398, 1.005042299,
2149.108903444, 1.004970255,
2149.129335689, 1.005712607,
2149.149767834, 1.004610871,
2149.170199879, 1.004600961,
2149.190632122, 1.004485804,
2149.211064266, 1.004438854,
2149.231496309, 1.004416593,
2149.272360693, 1.004399310,
2149.292792835, 1.004144938,
2149.313224976, 1.004117602,
2149.333657116, 1.004021777,
2149.374521395, 1.003895779,
2149.394953534, 1.003947705,
2149.415385673, 1.003850489,
2149.456249948, 1.003309021,
2149.497114321, 1.003514916,
2149.558410727, 1.003299078,
2149.578842762, 1.003120574,
2149.599274995, 1.003053718,
2149.619707028, 1.002897881,
2149.640139162, 1.002722572,
2149.660571394, 1.002533102,
2149.681003426, 1.002431132,
2149.701435557, 1.002400138,
2149.742299818, 1.002025231,
2149.762731948, 1.001792339,
2149.783164177, 1.001687503,
2149.803596206, 1.001668447,
2149.824028334, 1.001563326,
2149.844460563, 1.001246381,
2149.864892690, 1.001077596,
2149.885324717, 1.000981384,
2149.905756943, 1.000653822,
2149.946621094, 1.000250478,
2149.967053319, 1.000007110,
2149.987485443, 0.999816628,
2150.007917467, 0.999722458,
2150.028349691, 0.999477058,
2150.048781813, 0.999321037,
2150.089646058, 0.999085651,
2150.110078179, 0.998980367,
2150.130510400, 0.998763248,
2150.171374540, 0.998237781,
2150.191806759, 0.998079552,
2150.212238778, 0.997796070,
2150.232670897, 0.997550675,
2150.253103114, 0.997442036,
2150.273535232, 0.997169764,
2150.293967249, 0.996855854,
2150.314399465, 0.996845368,
2150.334831581, 0.996482121,
2150.355263596, 0.996335147,
2150.375695811, 0.996145783,
2150.396127826, 0.995899755,
2150.416559940, 0.995633500,
2150.436992153, 0.995384957,
2150.457424166, 0.995105136,
2150.477856278, 0.994763011,
2150.498288490, 0.994628311,
2150.518720502, 0.994506255,
2150.539152612, 0.994281993,
2150.559584823, 0.993936593,
2150.580016833, 0.993605942,
2150.600448942, 0.993392605,
2150.682177475, 0.992657591,
2150.702609582, 0.992378690,
2150.723041689, 0.992228744,
2150.743473795, 0.992081284,
2150.784338105, 0.991911664,
2150.804770110, 0.991900498,
2150.825202214, 0.991851063,
2150.845634417, 0.991825490,
2150.866066420, 0.991737830,
2150.886498523, 0.991537071,
2150.906930725, 0.991488695,
2150.927362726, 0.991425926,
2150.947794827, 0.991442961,
2150.968227028, 0.991462895,
2150.988659028, 0.991257884,
2151.009091128, 0.991275383,
2151.029523227, 0.991221208,
2151.049955325, 0.991190787,
2151.070387424, 0.991273869,
2151.090819621, 0.991224665,
2151.111251618, 0.991390174,
2151.131683715, 0.991046367,
2151.152115911, 0.991250520,
2151.172547907, 0.991166912,
2151.192980002, 0.990812373,
2151.213412197, 0.990705801,
2151.233844191, 0.990636369,
2151.254276385, 0.990518018,
2151.274708478, 0.990565667,
2151.295140471, 0.990378014,
2151.315572663, 0.990478727,
2151.336004755, 0.990779563,
2151.356436746, 0.991122586,
2151.376868937, 0.991395517,
2151.417733017, 0.992167364,
2151.438165206, 0.992428458,
2151.458597295, 0.992505172,
2151.479029283, 0.992632547,
2151.499461471, 0.992704277,
2151.519893559, 0.992459371,
2151.540325645, 0.992283346,
2151.560757732, 0.992110924,
2151.581189818, 0.992126521,
2151.601621903, 0.992047650,
2151.622054088, 0.991801368,
2151.642486073, 0.991766114,
2151.662918157, 0.992033991,
2151.683350340, 0.992323041,
2151.703782323, 0.992676741,
2151.724214406, 0.993066800,
2151.744646588, 0.995020973,
2151.785510651, 0.994629371,
2151.805942831, 0.996135450,
2151.826374811, 0.997310871,
2151.846806891, 0.998432065,
2151.867238970, 0.999910464,
2151.908103227, 0.998187146,
2151.928535204, 0.998398786,
2151.948967282, 0.998503141,
2151.969399458, 0.998599479,
2151.989831535, 0.998694636,
2152.010263511, 0.998797970,
2152.030695686, 0.998881421,
2152.051127760, 0.998768722,
2152.071559735, 0.998882748,
2152.091991909, 0.998882960,
2152.112423982, 0.998859906,
2152.132855955, 0.998909430,
2152.153288127, 0.998833350,
2152.173720199, 0.998462563,
2152.194152170, 0.997989783,
2152.214584342, 0.997869581,
2152.235016412, 0.997654145,
2152.255448382, 0.997388045,
2152.275880552, 0.997259162,
2152.296312620, 0.997310385,
2152.316744589, 0.997484251,
2152.337176757, 0.997614441,
2152.357608824, 0.997748564,
2152.378040892, 0.997914366,
2152.398472958, 0.998001878,
2152.439337090, 0.998001042,
2152.459769255, 0.997797968,
2152.480201220, 0.997873024,
2152.500633384, 0.997753108,
2152.521065448, 0.997166244,
2152.541497411, 0.996330402,
2152.561929574, 0.995590812,
2152.602793598, 0.995096639,
2152.623225760, 0.995233090,
2152.643657721, 0.995360073,
2152.664089781, 0.995481527,
2152.684521941, 0.996602463,
2152.704953900, 0.997853722,
2152.725385959, 0.998780470,
2152.745818118, 0.999432885,
2152.766250076, 1.000259278,
2152.786682134, 1.000558240,
2152.807114290, 1.001907464,
2152.827546347, 1.001808796,
2152.847978303, 1.001923134,
2152.888842514, 1.002339983,
2152.909274469, 1.002369041,
2152.950138677, 1.002667856,
2152.970570630, 1.002700597,
2152.991002783, 1.002735031,
2153.011434835, 1.003022877,
2153.031866787, 1.003153472,
2153.052298938, 1.003245705,
2153.072730989, 1.003322732,
2153.093163139, 1.003425188,
2153.113595090, 1.003536290,
2153.134027139, 1.003657211,
2153.154459288, 1.003729601,
2153.195323285, 1.003698690,
2153.215755432, 1.003960544,
2153.236187379, 1.004094686,
2153.256619426, 1.004186866,
2153.277051472, 1.004204162,
2153.317915563, 1.004499878,
2153.379211696, 1.003991081,
2153.399643840, 1.004058675,
2153.420075782, 1.004312653,
2153.440507825, 1.004448151,
2153.460939967, 1.004657775,
2153.481371908, 1.004795631,
2153.501803949, 1.004937467,
2153.522236090, 1.004998095,
2153.542668030, 1.005101250,
2153.563100070, 1.005115529,
2153.583532209, 1.005239014,
2153.603964147, 1.005449975,
2153.624396186, 1.005416102,
2153.644828323, 1.005404810,
2153.665260360, 1.005436445,
2153.685692397, 1.005298578,
2153.706124434, 1.005035586,
2153.726556469, 1.004851932,
2153.746988505, 1.004670394,
2153.767420540, 1.005089795,
2153.787852574, 1.005063675,
2153.808284708, 1.005081353,
2153.828716642, 1.005166350,
2153.890012739, 1.005003529,
2153.930876902, 1.004723186,
2153.951308833, 1.004551245,
2153.971740863, 1.004386716,
2153.992172993, 1.004426440,
2154.012604922, 1.004375931,
2154.033036951, 1.004353772,
2154.053468980, 1.004286313,
2154.073901008, 1.004518172,
2154.094333035, 1.004119274,
2154.114765062, 1.004120663,
2154.135197089, 1.004048480,
2154.155629115, 1.003999916,
2154.176061140, 1.003861721,
2154.196493165, 1.003746991,
2154.216925190, 1.003705817,
2154.237357314, 1.003722797,
2154.257789238, 1.003648902,
2154.278221361, 1.003464209,
2154.339517428, 1.003116075,
2154.359949450, 1.002897305,
2154.400813491, 1.003017581,
2154.421245512, 1.002963673,
2154.441677431, 1.002923560,
2154.462109550, 1.002845587,
2154.482541569, 1.002604717,
2154.502973587, 1.002524139,
2154.523405605, 1.002493047,
2154.543837622, 1.002303276,
2154.584701655, 1.001975186,
2154.605133671, 1.001849870,
2154.625565686, 1.001581846,
2154.645997801, 1.001371617,
2154.686861730, 1.001115161,
2154.707293844, 1.000800158,
2154.727725757, 1.000661700,
2154.748157770, 1.000538815,
2154.768589782, 1.000254839,
2154.809453905, 0.999983416,
2154.829885816, 0.999849984,
2154.850317826, 0.999720525,
2154.891181846, 0.999289713,
2154.911613855, 0.999178239,
2154.932045963, 0.998880872,
2154.952477872, 0.998682374,
2154.972909879, 0.998498314,
2154.993341986, 0.998161526,
2155.013773893, 0.998031988,
2155.034205900, 0.997761052,
2155.054638005, 0.997399752,
2155.075070011, 0.997103437,
2155.095501915, 0.996782594,
2155.115934020, 0.996661268,
2155.136366024, 0.996624954,
2155.156797927, 0.996535006,
2155.177230031, 0.996210828,
2155.218093935, 0.995204142,
2155.238526037, 0.994823180,
2155.258958038, 0.994317844,
2155.279389939, 0.993832477,
2155.299822040, 0.993466853,
2155.320254039, 0.993107726,
2155.340686039, 0.992632784,
2155.361118038, 0.992559409,
2155.381550037, 0.992892796,
2155.401982135, 0.993151269,
2155.422414032, 0.993502367,
2155.442846030, 0.993310948,
2155.463278126, 0.993075141,
2155.483710023, 0.992763086,
2155.504142018, 0.992436732,
2155.524574014, 0.992238688,
2155.545006009, 0.991886842,
2155.565438003, 0.991653121,
2155.585870097, 0.991476964,
2155.606301991, 0.991218276,
2155.626733984, 0.991064699,
2155.647166077, 0.990908046,
2155.667597969, 0.990735127,
2155.688029961, 0.990688098,
2155.708462052, 0.990549522,
2155.728893943, 0.990501682,
2155.749325933, 0.990366375,
2155.769758024, 0.990357004,
2155.790189913, 0.990236060,
2155.851485879, 0.992088788,
2155.871917867, 0.991920453,
2155.892349954, 0.991840900,
2155.912781941, 0.992089957,
2155.933213827, 0.992350979,
2155.953645913, 0.992505796,
2155.974077899, 0.992611837,
2156.014941868, 0.992749726,
2156.035373853, 0.992790350,
2156.055805936, 0.993235307,
2156.076237819, 0.993617487,
2156.096669802, 0.993933910,
2156.117101885, 0.994382815,
2156.137533767, 0.994669204,
2156.157965748, 0.995237435,
2156.178397829, 0.995502779,
2156.198829710, 0.995795731,
2156.219261690, 0.995935973,
2156.239693769, 0.996123297,
2156.260125649, 0.996489021,
2156.280557628, 0.996619136,
2156.300989606, 0.996885782,
2156.321421584, 0.997225826,
2156.403149491, 0.998559962,
2156.423581567, 0.998765264,
2156.444013442, 0.998979140,
2156.464445417, 0.998933578,
2156.484877491, 0.999111803,
2156.505309365, 0.999251285,
2156.525741339, 0.999295246,
2156.546173412, 0.999452896,
2156.566605285, 0.999721603,
2156.587037357, 0.999634704,
2156.607469328, 0.999668462,
2156.627901200, 0.999801092,
2156.648333270, 0.999983510,
2156.668765241, 1.000221684,
2156.689197111, 1.000204000,
2156.709629181, 1.000303252,
2156.730061149, 1.000429999,
2156.750493118, 1.000221344,
2156.770925086, 1.000119061,
2156.791357054, 1.000197633,
2156.811789021, 1.000411169,
2156.832220988, 1.000568287,
2156.852652955, 1.000180328,
2156.873084921, 1.000024883,
2156.893516986, 1.000298750,
2156.913948851, 1.000668523,
2156.934380816, 1.000684516,
2156.954812880, 1.000888547,
2156.975244744, 1.000851218,
2156.995676707, 1.000519138,
2157.016108670, 1.000371784,
2157.036540633, 1.000229523,
2157.056972595, 1.000319367,
2157.077404556, 1.000219145,
2157.118268479, 0.999994290,
2157.138700439, 0.999413514,
2157.159132398, 0.999310082,
2157.179564458, 0.999105826,
2157.199996317, 0.998896254,
2157.240860334, 0.999174216,
2157.302156205, 0.999580018,
2157.363452073, 0.999383621,
2157.383884028, 0.999132800,
2157.404315883, 0.998753229,
2157.424747937, 0.998519953,
2157.445179891, 0.999267116,
2157.465611744, 0.999325224,
2157.486043797, 0.999115670,
2157.506475750, 0.999651988,
2157.526907602, 1.000038537,
2157.547339654, 0.999618958,
2157.567771605, 0.999357427,
2157.608635505, 1.000367253,
2157.629067456, 1.000819240,
2157.649499405, 1.000467004,
2157.669931354, 1.000100658,
2157.690363302, 0.999852213,
2157.710795251, 0.999496603,
2157.812954985, 0.999863140,
2157.833387031, 1.000364021,
2157.853818876, 1.000925608,
2157.874250820, 1.001053822,
2157.894682864, 1.001179777,
2157.915114708, 1.001331119,
2157.935546652, 1.001410923,
2157.955978695, 1.001800836,
2157.976410537, 1.002299899,
2157.996842479, 1.002749649,
2158.017274521, 1.002981707,
2158.037706362, 1.002914952,
2158.058138303, 1.002875253,
2158.078570344, 1.002971738,
2158.099002284, 1.003501802,
2158.119434123, 1.004094722,
2158.139866162, 1.004998443,
2158.160298101, 1.005266332,
2158.180729939, 1.005017766,
2158.201161977, 1.004628252,
2158.221593915, 1.004610366,
2158.242025751, 1.004620971,
2158.262457788, 1.004602596,
2158.282889724, 1.004403898,
2158.303321560, 1.004204195,
2158.323753595, 1.003816710,
2158.344185530, 1.004199193,
2158.364617564, 1.004557556,
2158.385049399, 1.004857490,
2158.405481332, 1.005084704,
2158.425913365, 1.005345044,
2158.446345198, 1.005278137,
2158.466777130, 1.005299896,
2158.487209162, 1.005053924,
2158.507640993, 1.004905687,
2158.528072924, 1.005133280,
2158.548504855, 1.005289279,
2158.568936786, 1.005125380,
2158.589368715, 1.004814383,
2158.609800745, 1.004774253,
2158.630232573, 1.004868363,
2158.650664502, 1.005232702,
2158.671096530, 1.005489243,
2158.691528358, 1.005800281,
2158.732392312, 1.006164268,
2158.773256064, 1.006594071,
2158.793688090, 1.006672527,
2158.814119915, 1.006459159,
2158.834551839, 1.006274503,
2158.854983864, 1.006217344,
2158.875415688, 1.006159321,
2158.895847711, 1.006300292,
2158.916279634, 1.006617402,
2158.936711557, 1.007104196,
2158.957143479, 1.007666031,
2158.977575400, 1.007559107,
2158.998007322, 1.007065452,
2159.018439243, 1.006794084,
2159.038871163, 1.006473102,
2159.059303084, 1.006003973,
2159.079735103, 1.005483457,
2159.100166923, 1.004818248,
2159.120598841, 1.004876316,
2159.141030860, 1.005153758,
2159.161462678, 1.005200205,
2159.181894595, 1.005348505,
2159.202326612, 1.005207959,
2159.222758429, 1.005063118,
2159.243190346, 1.004712325,
2159.263622261, 1.004338331,
2159.284054177, 1.004429658,
2159.304486092, 1.004319703,
2159.324918007, 1.004116216,
2159.345349921, 1.003761402,
2159.365781835, 1.003208276,
2159.406645661, 1.003045645,
2159.427077574, 1.003079149,
2159.447509586, 1.003519293,
2159.467941398, 1.003667868,
2159.508805320, 1.003651096,
2159.529237131, 1.003869288,
2159.549669141, 1.003526959,
2159.570101050, 1.003156517,
2159.590532859, 1.003433518,
2159.610964868, 1.004045661,
2159.631396777, 1.003406885,
2159.651828585, 1.002522310,
2159.672260592, 1.001636853,
2159.692692500, 1.000555069,
2159.753988219, 1.000877586,
2159.774420124, 1.000636936,
2159.856147743, 0.998482849,
2159.876579646, 0.998439086,
2159.897011549, 0.998438171,
2159.917443552, 0.998521371,
2159.937875354, 0.998194110,
2159.958307256, 0.997696928,
2159.978739157, 0.997104334,
2159.999171058, 0.996915707,
2160.019602859, 0.997960957,
2160.040034859, 0.997149868,
2160.060466759, 0.996358697,
2160.080898758, 0.995385638,
2160.101330557, 0.995383287,
2160.142194454, 0.994892097,
2160.162626252, 0.994134581,
2160.183058149, 0.993408431,
2160.203490146, 0.993522734,
2160.223921943, 0.993216865,
2160.244353839, 0.993041513,
2160.264785835, 0.992850832,
2160.285217730, 0.992248265,
2160.305649525, 0.991578362,
2160.326081520, 0.991783344,
2160.346513413, 0.991733440,
2160.366945207, 0.991597336,
2160.387377201, 0.991318978,
2160.407809093, 0.990943282,
2160.448672878, 0.990710493,
2160.469104770, 0.990486138,
2160.489536561, 0.990458818,
2160.509968552, 0.990293408,
2160.530400442, 0.990011995,
2160.550832232, 0.989690075,
2160.591696111, 0.989651949,
2160.612128000, 0.989714637,
2160.632559889, 0.989713592,
2160.652991776, 0.989749728,
2160.673423764, 0.989874997,
2160.693855551, 0.989994393,
2160.734719425, 0.991636246,
2160.755151211, 0.991235392,
2160.796014981, 0.990332057,
2160.816446866, 0.991065057,
2160.836878751, 0.991812160,
2160.857310735, 0.991543777,
2160.877742518, 0.991455554,
2160.898174402, 0.991581569,
2160.918606385, 0.992209172,
2160.939038167, 0.992726570,
2160.959470049, 0.992713570,
2160.979902030, 0.992661573,
2161.000333812, 0.993394729,
2161.020765693, 0.994156073,
2161.041197673, 0.994272873,
2161.061629453, 0.994487718,
2161.082061333, 0.994907483,
2161.102493312, 0.995231524,
2161.122925191, 0.995463502,
2161.143356969, 0.995512232,
2161.163788947, 0.995769653,
2161.184220825, 0.996214882,
2161.225084579, 0.996817495,
2161.245516455, 0.997286372,
2161.265948231, 0.997677392,
2161.286380207, 0.997612307,
2161.306812082, 0.996536551,
2161.327244057, 0.995508365,
2161.347675831, 0.995284564,
2161.368107705, 0.995591447,
2161.388539679, 0.995675334,
2161.470267070, 1.001306009,
2161.490698942, 1.000930037,
2161.511130813, 1.001239410,
2161.531562684, 1.001472812,
2161.551994554, 1.001178221,
2161.572426424, 1.002043404,
2161.613290164, 1.002259816,
2161.654153901, 1.002405617,
2161.674585769, 1.002449547,
2161.735881371, 1.002680935,
2161.756313337, 1.002161175,
2161.776745104, 1.001518407,
2161.797176969, 1.002128075,
2161.817608935, 1.003137135,
2161.838040700, 1.001995040,
2161.858472665, 1.001488778,
2161.878904529, 1.001622628,
2161.899336293, 1.001981571,
2161.919768256, 1.001731941,
2161.940200119, 1.001220061,
2161.960631982, 1.001601684,
2161.981063844, 1.001908252,
2162.001495706, 1.001588570,
2162.021927567, 1.001341130,
2162.042359429, 1.001404270,
2162.062791289, 1.001202565,
2162.083223149, 1.001134206,
2162.103655009, 1.000841403,
2162.124086869, 1.000424181,
2162.144518728, 1.000213170,
2162.164950687, 1.000236808,
